#mu          density      sigma1_xx       sigma2_xx       sigma1_xy       sigma2_xy       alpha1_xx       alpha2_xx       alpha1_xy       alpha2_xy       beta1_xx        beta2_xx        beta1_xy        beta2_xy
-4.00000000  1.00000000   1.91028416e-06  2.46310629e-03 -2.85810413e-09 -1.46107486e-03  3.96516673e-08  8.04755498e-04 -1.04523686e-10 -9.97846245e-04  5.05080672e-06  7.44158101e-03 -7.56463310e-09 -5.76920179e-03 
-3.96000000  0.99999979   1.97153592e-06  4.12480336e-03 -3.02153031e-09 -3.92321234e-03  4.13071023e-08  1.60120915e-03 -1.11591904e-10 -3.03027707e-03  5.21281403e-06  1.29011368e-02 -7.99743507e-09 -1.62899991e-02 
-3.92000000  0.99998848   2.03535768e-06  7.49776296e-03 -3.19606500e-09 -1.14545532e-02  4.30491610e-08  3.22393246e-03 -1.19217817e-10 -8.77101372e-03  5.38162202e-06  2.36232639e-02 -8.45967679e-09 -4.52719686e-02 
-3.88000000  0.99947839   2.10188462e-06  1.41290426e-02 -3.38258937e-09 -3.18397824e-02  4.48833521e-08  5.83664805e-03 -1.27452020e-10 -1.99392580e-02  5.55758861e-06  4.25716261e-02 -8.95369552e-09 -1.07497466e-01 
-3.84000000  0.99543258   2.17126058e-06  2.52236024e-02 -3.58206498e-09 -7.21079433e-02  4.68156004e-08  8.66076454e-03 -1.36350323e-10 -3.21096115e-02  5.74109464e-06  7.11210146e-02 -9.48204191e-09 -2.08435935e-01 
-3.80000000  0.98979326   2.24363869e-06  4.01334270e-02 -3.79554208e-09 -1.27663906e-01  4.88522830e-08  1.06336657e-02 -1.45974355e-10 -3.89186820e-02  5.93254561e-06  1.08556586e-01 -1.00475022e-08 -3.43768760e-01 
-3.76000000  0.98402720   2.31918209e-06  5.71855619e-02 -4.02416896e-09 -1.88729825e-01  5.10002699e-08  1.16192485e-02 -1.56392248e-10 -4.05174126e-02  6.13237354e-06  1.52226455e-01 -1.06531229e-08 -4.98793945e-01 
-3.72000000  0.97818456   2.39806472e-06  7.51875828e-02 -4.26920232e-09 -2.49850436e-01  5.32669679e-08  1.20450788e-02 -1.67679406e-10 -3.98309828e-02  6.34103906e-06  1.99174965e-01 -1.13022385e-08 -6.58148706e-01 
-3.68000000  0.97226360   2.48047216e-06  9.36073269e-02 -4.53201891e-09 -3.09183086e-01  5.56603703e-08  1.22643314e-02 -1.79919383e-10 -3.84859360e-02  6.55903365e-06  2.47705298e-01 -1.19985024e-08 -8.14528060e-01 
-3.64000000  0.96626112   2.56660257e-06  1.12321930e-01 -4.81412861e-09 -3.66381496e-01  5.81891101e-08  1.25076178e-02 -1.93204871e-10 -3.72367593e-02  6.78688212e-06  2.97393278e-01 -1.27459216e-08 -9.66481013e-01 
-3.60000000  0.96017340   2.65666768e-06  1.31531535e-01 -5.11718905e-09 -4.22129285e-01  6.08625206e-08  1.30248466e-02 -2.07638827e-10 -3.70620665e-02  7.02514527e-06  3.48930290e-01 -1.35488956e-08 -1.11716416e+00 
-3.56000000  0.95399748   2.75089389e-06  1.51900452e-01 -5.44302209e-09 -4.79314600e-01  6.36907014e-08  1.42024817e-02 -2.23335757e-10 -4.02959467e-02  7.27442283e-06  4.04315571e-01 -1.44122605e-08 -1.27725879e+00 
-3.52000000  0.94758703   2.84952355e-06  1.74765627e-01 -5.79363232e-09 -5.45661015e-01  6.66845917e-08  1.63651992e-02 -2.40423170e-10 -4.98854733e-02  7.53535669e-06  4.66447249e-01 -1.53413380e-08 -1.46452894e+00 
-3.48000000  0.93893743   2.95281620e-06  2.01578077e-01 -6.17122801e-09 -6.31278011e-01  6.98560521e-08  1.90373360e-02 -2.59043249e-10 -6.28717710e-02  7.80863447e-06  5.37182310e-01 -1.63419909e-08 -1.68897413e+00 
-3.44000000  0.92797950   3.06105009e-06  2.32237925e-01 -6.57824465e-09 -7.34633556e-01  7.32179553e-08  2.10753500e-02 -2.79354753e-10 -7.06203124e-02  8.09499330e-06  6.16291189e-01 -1.74206862e-08 -1.94741094e+00 
-3.40000000  0.91670050   3.17452378e-06  2.65123439e-01 -7.01737160e-09 -8.43282218e-01  7.67842869e-08  2.20313063e-02 -3.01535196e-10 -7.08536396e-02  8.39522419e-06  7.01485018e-01 -1.85845662e-08 -2.22410916e+00 
-3.36000000  0.90521607   3.29355787e-06  2.98772711e-01 -7.49158231e-09 -9.48280822e-01  8.05702581e-08  2.22504843e-02 -3.25783350e-10 -6.70812092e-02  8.71017664e-06  7.89495591e-01 -1.98415282e-08 -2.49740564e+00 
-3.32000000  0.89350713   3.41849701e-06  3.32408421e-01 -8.00416858e-09 -1.04606432e+00  8.45924313e-08  2.21103651e-02 -3.52322121e-10 -6.18284950e-02  9.04076385e-06  8.77961580e-01 -2.12003163e-08 -2.75427849e+00 
-3.28000000  0.88157372   3.54971197e-06  3.65675179e-01 -8.55877941e-09 -1.13534070e+00  8.88688607e-08  2.18054630e-02 -3.81401853e-10 -5.59903191e-02  9.38796842e-06  9.65672553e-01 -2.26706251e-08 -2.98947301e+00 
-3.24000000  0.86940970   3.68760208e-06  3.98405421e-01 -9.15946536e-09 -1.21549920e+00  9.34192495e-08  2.14194709e-02 -4.13304153e-10 -4.98210972e-02  9.75284863e-06  1.05205935e+00 -2.42632172e-08 -3.20078914e+00 
-3.20000000  0.85700300   3.83259782e-06  4.30511244e-01 -9.81072897e-09 -1.28611106e+00  9.82651266e-08  2.09884262e-02 -4.48346295e-10 -4.33839068e-02  1.01365454e-05  1.13683766e+00 -2.59900582e-08 -3.38692005e+00 
-3.16000000  0.84432138   3.98516372e-06  4.61940097e-01 -1.05175824e-08 -1.34678253e+00  1.03430044e-07  2.05288097e-02 -4.86886334e-10 -3.66833334e-02  1.05402902e-05  1.21984686e+00 -2.78644702e-08 -3.54676712e+00 
-3.12000000  0.83135797   4.14580163e-06  4.92656290e-01 -1.12856136e-08 -1.39710575e+00  1.08939803e-07  2.00487535e-02 -5.29329038e-10 -2.97023543e-02  1.09654131e-05  1.30098306e+00 -2.99013077e-08 -3.67922702e+00 
-3.08000000  0.81808633   4.31505425e-06  5.22632829e-01 -1.21210617e-08 -1.43663715e+00  1.14822699e-07  1.95526130e-02 -5.76132779e-10 -2.24124398e-02  1.14133530e-05  1.38017044e+00 -3.21171596e-08 -3.78311046e+00 
-3.04000000  0.80447436   4.49350914e-06  5.51847622e-01 -1.30309040e-08 -1.46488278e+00  1.21109813e-07  1.90429672e-02 -6.27817575e-10 -1.47757933e-02  1.18856678e-05  1.45734853e+00 -3.45305807e-08 -3.85709583e+00 
-3.00000000  0.79051158   4.68180317e-06  5.80281702e-01 -1.40229560e-08 -1.48128454e+00  1.27835329e-07  1.85215788e-02 -6.84974480e-10 -6.74471444e-03  1.23840461e-05  1.53246629e+00 -3.71623588e-08 -3.89968905e+00 
-2.96000000  0.77617512   4.88062747e-06  6.07918466e-01 -1.51059870e-08 -1.48520384e+00  1.35036897e-07  1.79899052e-02 -7.48276583e-10  1.74096483e-03  1.29103209e-05  1.60547964e+00 -4.00358228e-08 -3.90917754e+00 
-2.92000000  0.76142379   5.09073299e-06  6.34743475e-01 -1.62898532e-08 -1.47589980e+00  1.42756049e-07  1.74494372e-02 -8.18491909e-10  1.07581040e-02  1.34664838e-05  1.67635078e+00 -4.31771988e-08 -3.88356922e+00 
-2.88000000  0.74620937   5.31293671e-06  6.60744713e-01 -1.75856521e-08 -1.45249949e+00  1.51038667e-07  1.69020050e-02 -8.96498616e-10  2.04068311e-02  1.40547017e-05  1.74504893e+00 -4.66160227e-08 -3.82050857e+00 
-2.84000000  0.73047930   5.54812860e-06  6.85913317e-01 -1.90059026e-08 -1.41395594e+00  1.59935522e-07  1.63501372e-02 -9.83302908e-10  3.08211692e-02  1.46773357e-05  1.81155241e+00 -5.03856201e-08 -3.71715628e+00 
-2.80000000  0.71417190   5.79727946e-06  7.10244936e-01 -2.05647533e-08 -1.35898596e+00  1.69502884e-07  1.57975696e-02 -1.08006024e-09  4.21867939e-02  1.53369614e-05  1.87585261e+00 -5.45236644e-08 -3.57000764e+00 
-2.76000000  0.69721045   6.06144978e-06  7.33742006e-01 -2.22782267e-08 -1.28597325e+00  1.79803222e-07  1.52500251e-02 -1.18810045e-09  5.47721299e-02  1.60363929e-05  1.93796052e+00 -5.90728292e-08 -3.37460396e+00 
-2.72000000  0.67949841   6.34179969e-06  7.56417520e-01 -2.41645039e-08 -1.19280955e+00  1.90906016e-07  1.47164404e-02 -1.30895769e-09  6.89859117e-02  1.67787091e-05  1.99791744e+00 -6.40815506e-08 -3.12504703e+00 
-2.68000000  0.66091228   6.63960020e-06  7.78301163e-01 -2.62442600e-08 -1.07661782e+00  2.02888677e-07  1.42108641e-02 -1.44440608e-09  8.54895535e-02  1.75672834e-05  2.05581237e+00 -6.96049230e-08 -2.81313209e+00 
-2.64000000  0.64128594   6.95624603e-06  7.99449028e-01 -2.85410568e-08 -9.33240491e-01  2.15837615e-07  1.37548852e-02 -1.59650247e-09  1.05421066e-01  1.84058186e-05  2.11180744e+00 -7.57057529e-08 -2.42673817e+00 
-2.60000000  0.62037345   7.29327009e-06  8.19956762e-01 -3.10818075e-08 -7.56266624e-01  2.29849480e-07  1.33771236e-02 -1.76763763e-09  1.30780538e-01  1.92983847e-05  2.16615868e+00 -8.24558018e-08 -1.94707456e+00 
-2.56000000  0.59775615   7.65236002e-06  8.39963871e-01 -3.38973258e-08 -5.35419529e-01  2.45032587e-07  1.30893181e-02 -1.96059809e-09  1.64479061e-01  2.02494634e-05  2.21914764e+00 -8.99372584e-08 -1.34658476e+00 
-2.52000000  0.57258454   8.03537700e-06  8.59578880e-01 -3.70229775e-08 -2.56176188e-01  2.61508584e-07  1.27738660e-02 -2.17864069e-09  2.06416197e-01  2.12639980e-05  2.27066340e+00 -9.82444859e-08 -6.00680435e-01 
-2.48000000  0.54228481   8.44437738e-06  8.78532491e-01 -4.04994564e-08  8.81395644e-02  2.79414390e-07  1.19922724e-02 -2.42558318e-09  2.40466240e-01  2.23474516e-05  2.31937598e+00 -1.07486103e-07  2.69168258e-01 
-2.44000000  0.50659462   8.88163738e-06  8.95652796e-01 -4.43737107e-08  4.63174285e-01  2.98904462e-07  1.02524248e-02 -2.70591434e-09  2.39590949e-01  2.35058724e-05  2.36280771e+00 -1.17787472e-07  1.18589847e+00 
-2.40000000  0.47801834   9.34968155e-06  9.09399962e-01 -4.87000539e-08  8.06059349e-01  3.20153455e-07  7.77879473e-03 -3.02492864e-09  2.07929612e-01  2.47459699e-05  2.39848635e+00 -1.29293681e-07  2.06383521e+00 
-2.36000000  0.45386651   9.85131554e-06  9.19206720e-01 -5.35414995e-08  1.09240831e+00  3.43359349e-07  5.26124365e-03 -3.38889147e-09  1.72900565e-01  2.60752026e-05  2.42480119e+00 -1.42173132e-07  2.83156571e+00 
-2.32000000  0.43213209   1.03896641e-05  9.25406398e-01 -5.89713743e-08  1.33156973e+00  3.68747141e-07  3.05540636e-03 -3.80524256e-09  1.46105295e-01  2.75018791e-05  2.44180342e+00 -1.56621880e-07  3.47842476e+00 
-2.28000000  0.41212907   1.09682150e-05  9.28530300e-01 -6.50752715e-08  1.53631572e+00  3.96573213e-07  1.17579343e-03 -4.28284781e-09  1.26360171e-01  2.90352760e-05  2.45056618e+00 -1.72868891e-07  4.02929694e+00 
-2.24000000  0.39349615   1.15908704e-05  9.29020665e-01 -7.19534282e-08  1.71507684e+00  4.27130533e-07 -4.50702291e-04 -4.83231214e-09  1.11005768e-01  3.06857746e-05  2.45223968e+00 -1.91182445e-07  4.50763800e+00 
-2.20000000  0.37595796   1.22620064e-05  9.27207697e-01 -7.97236304e-08  1.87297716e+00  4.60754850e-07 -1.88726854e-03 -5.46637021e-09  9.83661375e-02  3.24650208e-05  2.44774357e+00 -2.11877967e-07  4.92871095e+00 
-2.16000000  0.35928731   1.29865432e-05  9.23341915e-01 -8.85247779e-08  2.01328112e+00  4.97832116e-07 -3.17618339e-03 -6.20037666e-09  8.75161919e-02  3.43861128e-05  2.43777047e+00 -2.35327650e-07  5.30212964e+00 
-2.12000000  0.34334305   1.37700273e-05  9.17620697e-01 -9.85212793e-08  2.13821741e+00  5.38807418e-07 -4.34745797e-03 -7.05292440e-09  7.79225406e-02  3.64638211e-05  2.42284561e+00 -2.61972324e-07  5.63421235e+00 
-2.08000000  0.32807053   1.46187288e-05  9.10201288e-01 -1.09908498e-07  2.24938492e+00  5.84195757e-07 -5.42607318e-03 -8.04662872e-09  6.92353507e-02  3.87148491e-05  2.40338139e+00 -2.92336178e-07  5.92933134e+00 
-2.04000000  0.31345566   1.55397563e-05  9.01207311e-01 -1.22919531e-07  2.34794516e+00  6.34595131e-07 -6.43258284e-03 -9.20912703e-09  6.12003818e-02  4.11581418e-05  2.37971718e+00 -3.27045117e-07  6.19068385e+00 
-2.00000000  0.29945452   1.65411938e-05  8.90737144e-01 -1.37833697e-07  2.43474262e+00  6.90702474e-07 -7.38015909e-03 -1.05743615e-08  5.36447426e-02  4.38152526e-05  2.35214001e+00 -3.66849757e-07  6.42072209e+00 
-1.96000000  0.28596515   1.76322642e-05  8.78875085e-01 -1.54987220e-07  2.51042115e+00  7.53333195e-07 -8.27456280e-03 -1.21842343e-08  4.64742629e-02  4.67107830e-05  2.32089040e+00 -4.12654413e-07  6.62134838e+00 
-1.92000000  0.27289482   1.88235255e-05  8.65698853e-01 -1.74786753e-07  2.57551934e+00  8.23445220e-07 -9.11919195e-03 -1.40907589e-08  3.96387558e-02  4.98729096e-05  2.28616630e+00 -4.65553856e-07  6.79400113e+00 
-1.88000000  0.26020204   2.01271073e-05  8.51278917e-01 -1.97726613e-07  2.63049924e+00  9.02168773e-07 -9.92031565e-03 -1.63588729e-08  3.30811237e-02  5.33340206e-05  2.24813467e+00 -5.26880202e-07  6.93975981e+00 
-1.84000000  0.24790932   2.15569974e-05  8.35673925e-01 -2.24410870e-07  2.67571928e+00  9.90843451e-07 -1.06868577e-02 -1.90701466e-08  2.67211366e-02  5.71314883e-05  2.20694572e+00 -5.98263133e-07  7.05948982e+00 
-1.80000000  0.23602421   2.31293913e-05  8.18930390e-01 -2.55581884e-07  2.71142034e+00  1.09106468e-06 -1.14257309e-02 -2.23277054e-08  2.04876567e-02  6.13086106e-05  2.16273851e+00 -6.81707795e-07  7.15393853e+00 
-1.76000000  0.22451206   2.48631200e-05  8.01088443e-01 -2.92157395e-07  2.73776828e+00  1.20474231e-06 -1.21389840e-02 -2.62628211e-08  1.43528690e-02  6.59157664e-05  2.11563656e+00 -7.79696285e-07  7.22372525e+00 
-1.72000000  0.21329879   2.67801775e-05  7.82187445e-01 -3.35279153e-07  2.75491488e+00  1.33417495e-06 -1.28261723e-02 -3.10438104e-08  8.32166837e-03  7.10118411e-05  2.06574356e+00 -8.95320942e-07  7.26929186e+00 
-1.68000000  0.20235118   2.89063747e-05  7.62265922e-01 -3.86377157e-07  2.76301344e+00  1.48214516e-06 -1.34886606e-02 -3.68881608e-08  2.38923303e-03  7.66659977e-05  2.01314718e+00 -1.03246086e-06  7.29091541e+00 
-1.64000000  0.19166707   3.12721570e-05  7.41357576e-01 -4.47255286e-07  2.76218286e+00  1.65204195e-06 -1.41307707e-02 -4.40792150e-08 -3.48126631e-03  8.29598910e-05  1.95792715e+00 -1.19601774e-06  7.28878586e+00 
-1.60000000  0.18127906   3.39136307e-05  7.19489187e-01 -5.20206480e-07  2.75247602e+00  1.84802014e-06 -1.47572002e-02 -5.29893641e-08 -9.33853688e-03  8.99904581e-05  1.90015897e+00 -1.39223401e-06  7.26306319e+00 
-1.56000000  0.17117519   3.68738659e-05  6.96682650e-01 -6.08169226e-07  2.73389128e+00  2.07520908e-06 -1.53703916e-02 -6.41126497e-08 -1.52110248e-02  9.78734602e-05  1.83991143e+00 -1.62912635e-06  7.21386437e+00 
-1.52000000  0.16134171   4.02045593e-05  6.72958292e-01 -7.14942405e-07  2.70640981e+00  2.33998893e-06 -1.59706243e-02 -7.81111328e-08 -2.10999149e-02  1.06748018e-04  1.77724337e+00 -1.91708284e-06  7.14122109e+00 
-1.48000000  0.15172339   4.39681782e-05  6.48336045e-01 -8.45483618e-07  2.67001598e+00  2.65035980e-06 -1.65579783e-02 -9.58816856e-08 -2.69993832e-02  1.16782468e-04  1.71220421e+00 -2.26969525e-06  7.04506974e+00 
-1.44000000  0.14231477   4.82407500e-05  6.22834311e-01 -1.00632851e-06  2.62468761e+00  3.01644048e-06 -1.71336822e-02 -1.18653517e-07 -3.29162730e-02  1.28182009e-04  1.64483699e+00 -2.70493372e-06  6.92527942e+00 
-1.40000000  0.13310262   5.31155270e-05  5.96468606e-01 -1.20618792e-06  2.57037656e+00  3.45114986e-06 -1.76998666e-02 -1.48132677e-07 -3.88718466e-02  1.41198763e-04  1.57518053e+00 -3.24682729e-06  6.78167989e+00 
-1.36000000  0.12409942   5.87078565e-05  5.69251418e-01 -1.45681038e-06  2.50700084e+00  3.97115005e-06 -1.82585770e-02 -1.86719595e-07 -4.48902688e-02  1.56145208e-04  1.50326943e+00 -3.92790390e-06  6.61406418e+00 
-1.32000000  0.11529937   6.51617273e-05  5.41192993e-01 -1.77424722e-06  2.43445115e+00  4.59816908e-06 -1.88112043e-02 -2.37842241e-07 -5.09895062e-02  1.73412277e-04  1.42913334e+00 -4.79279007e-06  6.42217532e+00 
-1.28000000  0.10669862   7.26586833e-05  5.12302125e-01 -2.18073917e-06  2.35259953e+00  5.36088368e-06 -1.93585705e-02 -3.06475974e-07 -5.71808280e-02  1.93494121e-04  1.35279698e+00 -5.90361498e-06  6.20569683e+00 
-1.24000000  0.09828295   8.14301318e-05  4.82586525e-01 -2.70758173e-06  2.26130321e+00  6.29764260e-06 -1.99012453e-02 -3.99971456e-07 -6.34733346e-02  2.17022454e-04  1.27428096e+00 -7.34828002e-06  5.96425343e+00 
-1.20000000  0.09004893   9.17745996e-05  4.52052965e-01 -3.39956448e-06  2.16040291e+00  7.46047513e-06 -2.04396832e-02 -5.29402969e-07 -6.98776375e-02  2.44814961e-04  1.19360311e+00 -9.25338199e-06  5.69741630e+00 
-1.16000000  0.08198618   1.04082335e-04  4.20707554e-01 -4.32200114e-06  2.04971996e+00  8.92110613e-06 -2.09740939e-02 -7.11819020e-07 -7.64066492e-02  2.77944737e-04  1.11077999e+00 -1.18048833e-05  5.40470555e+00 
-1.12000000  0.07409161   1.18871034e-04  3.88556384e-01 -5.57213532e-06  1.92905408e+00  1.07801755e-05 -2.15041123e-02 -9.74102661e-07 -8.30746261e-02  3.17841861e-04  1.02582900e+00 -1.52820372e-05  5.08558871e+00 
-1.08000000  0.06634762   1.36838802e-04  3.55606776e-01 -7.29814904e-06  1.79818300e+00  1.31817045e-05 -2.20282592e-02 -1.35979618e-06 -8.98956335e-02  3.66445190e-04  9.38772143e-01 -2.01146961e-05  4.73947973e+00 
-1.04000000  0.05875799   1.58944454e-04  3.21869554e-01 -9.73180630e-06  1.65686456e+00  1.63363974e-05 -2.25429812e-02 -1.94158112e-06 -9.68815438e-02  4.26434805e-04  8.49642985e-01 -2.69833046e-05  4.36574507e+00 
-1.00000000  0.05132550   1.86532426e-04  2.87363258e-01 -1.32464305e-05  1.50484220e+00  2.05602843e-05 -2.30407286e-02 -2.84498284e-06 -1.04038413e-01  5.01597761e-04  7.58500359e-01 -3.69998799e-05  3.96372348e+00 
-0.96000000  0.04404021   2.21532708e-04  2.52122488e-01 -1.84638663e-05  1.34185845e+00  2.63409471e-05 -2.35057577e-02 -4.29536919e-06 -1.11355954e-01  5.97421632e-04  6.65456409e-01 -5.20495355e-05  3.53278218e+00 
-0.92000000  0.03690352   2.66791387e-04  2.16215503e-01 -2.64605269e-05  1.16769464e+00  3.44552993e-05 -2.39043758e-02 -6.71579721e-06 -1.18775029e-01  7.22092177e-04  5.70738166e-01 -7.54666077e-05  3.07248853e+00 
-0.88000000  0.02989838   3.26637622e-04  1.79783888e-01 -3.91844522e-05  9.82293139e-01  4.61880348e-05 -2.41609637e-02 -1.09424342e-05 -1.26079689e-01  8.88239210e-04  4.74831267e-01 -1.13449568e-04  2.58317182e+00 
-0.84000000  0.02302732   4.07897928e-04  1.43137489e-01 -6.03490301e-05  7.86163988e-01  6.37565716e-05 -2.40977447e-02 -1.87303664e-05 -1.32513349e-01  1.11613681e-03  3.78825437e-01 -1.78219815e-04  2.06784959e+00 
-0.80000000  0.01629250   5.21800245e-04  1.06986316e-01 -9.74791615e-05  5.81807050e-01  9.11835110e-05 -2.32992096e-02 -3.40328347e-05 -1.35485454e-01  1.43989076e-03  2.85179282e-01 -2.95628351e-04  1.53841082e+00 
-0.76000000  0.00968975   6.87750737e-04  7.29430824e-02 -1.66970508e-04  3.78281370e-01  1.36198883e-04 -2.09562251e-02 -6.65244775e-05 -1.27714458e-01  1.92015039e-03  1.98818253e-01 -5.25162046e-04  1.02917689e+00 
-0.72000000  0.00340659   9.41304572e-04  4.40907525e-02 -3.07760863e-04  2.00157943e-01  2.14661001e-04 -1.63221650e-02 -1.42272694e-04 -9.90340796e-02  2.67201051e-03  1.26632335e-01 -1.01805872e-03  5.99600216e-01 
-0.68000000  0.00020269   1.35214444e-03  2.38735766e-02 -6.22128094e-04  8.22865643e-02  3.61442786e-04 -1.03386363e-02 -3.39311742e-04 -5.57627602e-02  3.93020387e-03  7.34616873e-02 -2.20373730e-03  2.92748548e-01 
-0.64000000  0.00000395   2.06716030e-03  1.25076414e-02 -1.41005520e-03  2.86046176e-02  6.57805735e-04 -5.44149202e-03 -9.14173796e-04 -2.24419797e-02  6.20593700e-03  3.97703504e-02 -5.42582070e-03  1.16372356e-01 
-0.60000000  0.00000002   3.41577440e-03  6.89042382e-03 -3.63853457e-03  9.90319561e-03  1.29287500e-03 -2.66296719e-03 -2.72761834e-03 -7.48664291e-03  1.06333932e-02  2.15409787e-02 -1.49746385e-02  4.09254509e-02 
-0.56000000 -0.00000282   6.13752800e-03  4.12097326e-03 -1.04432691e-02  3.80317791e-03  2.63243218e-03 -1.34711795e-03 -8.16483536e-03 -2.49602013e-03  1.94593792e-02  1.24275506e-02 -4.24541705e-02  1.47193600e-02 
-0.52000000 -0.00014446   1.16321273e-02  2.66214418e-03 -2.99894619e-02  1.66068587e-03  5.00110046e-03 -7.35098678e-04 -2.03854422e-02 -9.19679640e-04  3.57737009e-02  7.77054201e-03 -1.07074856e-01  5.91856390e-03 
-0.48000000 -0.00242239   2.14228078e-02  1.82996347e-03 -7.32591898e-02  8.12623221e-04  7.93003698e-03 -4.33323423e-04 -3.66983502e-02 -3.82441745e-04  6.16216519e-02  5.21420824e-03 -2.20988953e-01  2.70369522e-03 
-0.44000000 -0.00684877   3.54890843e-02  1.32027131e-03 -1.39889104e-01  4.36023315e-04  1.02735810e-02 -2.72812083e-04 -4.84840263e-02 -1.77280655e-04  9.69583647e-02  3.69845369e-03 -3.83449584e-01  1.37865011e-03 
